#K (inv cm)	Frequency (GHz)	Blast window #1 BOPP t=484um with 89-54um pptfe arc                             	Wavelength(microns)			
10.03024	300.6990304	0.90906	996.985117			
10.080643	302.2100743	0.9379	992.0002127			Average Transmissivity
10.131046	303.7211182	0.93609	987.0649092		250um	0.9498912971
10.181449	305.2321622	0.89525	982.1784699		350um	0.9728777778
10.231852	306.7432061	0.88202	977.3401726		500um	0.9724820833
10.282255	308.25425	0.90635	972.5493095			
10.332658	309.7652939	0.89443	967.8051862		TIM BAND	0.9691647472
10.383061	311.2763379	0.87195	963.1071223			
10.433464	312.7873818	0.90582	958.45445			
10.483867	314.2984257	0.93861	953.8465148			
10.53427	315.8094697	0.93327	949.2826745			
10.584673	317.3205136	0.9219	944.7622992			
10.635076	318.8315575	0.94129	940.2847709			
10.685479	320.3426014	0.95063	935.8494832			
10.735882	321.8536454	0.94193	931.4558413			
10.786285	323.3646893	0.95769	927.1032612			
10.836688	324.8757332	0.9305	922.7911701			
10.887091	326.3867771	0.89019	918.5190057			
10.937494	327.8978211	0.89783	914.2862158			
10.987897	329.408865	0.96596	910.0922588			
11.0383	330.9199089	0.99719	905.9366026			
11.088703	332.4309528	0.95796	901.8187249			
11.139106	333.9419968	0.95713	897.7381129			
11.189509	335.4530407	0.95982	893.6942631			
11.239912	336.9640846	0.94952	889.6866808			
11.290315	338.4751285	0.98066	885.7148804			
11.340718	339.9861725	1.00118	881.7783848			
11.391121	341.4972164	0.97463	877.8767252			
11.441524	343.0082603	0.97873	874.0094414			
11.491927	344.5193042	0.98613	870.176081			
11.54233	346.0303482	0.9732	866.3761996			
11.592733	347.5413921	0.96434	862.6093605			
11.643136	349.052436	0.9837	858.8751347			
11.693539	350.56348	1.00077	855.1731003			
11.743942	352.0745239	0.99556	851.5028429			
11.794345	353.5855678	0.97635	847.8639551			
11.844748	355.0966117	0.98218	844.2560365			
11.895151	356.6076557	0.98901	840.6786934			
11.945554	358.1186996	0.98605	837.1315386			
11.995957	359.6297435	0.97793	833.6141918			
12.04636	361.1407874	0.96832	830.1262788			
12.096763	362.6518314	0.98638	826.6674316			
12.147166	364.1628753	0.99096	823.2372884			
12.197569	365.6739192	0.98553	819.8354934			
12.247972	367.1849631	0.99718	816.4616967			
12.298375	368.6960071	0.98639	813.1155539			
12.348778	370.207051	0.97544	809.7967264			
12.399181	371.7180949	0.98885	806.5048812			
12.449584	373.2291388	0.98313	803.2396906			
12.499987	374.7401828	0.97663	800.000832			
12.55039	376.2512267	0.98844	796.7879883			
12.600793	377.7622706	0.99379	793.6008472			
12.651196	379.2733145	1.00668	790.4391016			
12.701599	380.7843585	0.99724	787.3024491			
12.752002	382.2954024	0.97734	784.1905922			
12.802405	383.8064463	0.97572	781.103238			
12.852808	385.3174903	0.97525	778.0400983			
12.903211	386.8285342	0.97747	775.0008893			
12.953614	388.3395781	0.96892	771.9853317			
13.004017	389.850622	0.95408	768.9931503			
13.05442	391.361666	0.95479	766.0240746			
13.104823	392.8727099	0.9711	763.0778378			
13.155226	394.3837538	0.9771	760.1541775			
13.205629	395.8947977	0.96593	757.2528351			
13.256032	397.4058417	0.96136	754.3735561			
13.306435	398.9168856	0.96455	751.5160898			
13.356838	400.4279295	0.95275	748.6801891			
13.407241	401.9389734	0.94961	745.865611			
13.457644	403.4500174	0.9498	743.0721157			
13.508047	404.9610613	0.93329	740.2994674			
13.55845	406.4721052	0.93608	737.5474335			
13.608853	407.9831491	0.94091	734.815785			
13.659256	409.4941931	0.93512	732.1042962			
13.709659	411.005237	0.94181	729.4127447			
13.760062	412.5162809	0.94428	726.7409115			
13.810465	414.0273248	0.93823	724.0885807			
13.860868	415.5383688	0.93466	721.4555394			
13.911271	417.0494127	0.93319	718.8415782			
13.961674	418.5604566	0.93227	716.2464902			
14.012077	420.0715006	0.9253	713.6700719			
14.06248	421.5825445	0.9264	711.1121225			
14.112883	423.0935884	0.92304	708.5724441			
14.163286	424.6046323	0.91026	706.0508416			
14.213689	426.1156763	0.90826	703.5471228			
14.264092	427.6267202	0.91117	701.061098			
14.314495	429.1377641	0.91186	698.5925805			
14.364898	430.648808	0.9147	696.1413858			
14.415301	432.159852	0.92034	693.7073322			
14.465704	433.6708959	0.91969	691.2902407			
14.516107	435.1819398	0.91737	688.8899345			
14.56651	436.6929837	0.91559	686.5062393			
14.616913	438.2040277	0.91473	684.1389834			
14.667316	439.7150716	0.91552	681.7879972			
14.717719	441.2261155	0.91504	679.4531136			
14.768122	442.7371594	0.91833	677.1341678			
14.818525	444.2482034	0.91638	674.830997			
14.868928	445.7592473	0.91105	672.5434409			
14.919331	447.2702912	0.91414	670.2713413			
14.969734	448.7813351	0.91015	668.0145419			
15.020137	450.2923791	0.90702	665.7728888			
15.07054	451.803423	0.91616	663.5462299			
15.120943	453.3144669	0.91843	661.3344155			
15.171346	454.8255109	0.92153	659.1372974			
15.221749	456.3365548	0.92603	656.9547297			
15.272152	457.8475987	0.925	654.7865684			
15.322555	459.3586426	0.92724	652.6326712			
15.372958	460.8696866	0.92599	650.492898			
15.423361	462.3807305	0.92049	648.3671101			
15.473764	463.8917744	0.92687	646.255171			
15.524167	465.4028183	0.92574	644.1569457			
15.57457	466.9138623	0.92078	642.0723012			
15.624973	468.4249062	0.92538	640.0011059			
15.675376	469.9359501	0.92751	637.9432302			
15.725779	471.446994	0.93144	635.8985459			
15.776182	472.958038	0.92787	633.8669267			
15.826585	474.4690819	0.93195	631.8482477			
15.876988	475.9801258	0.93717	629.8423857			
15.927391	477.4911697	0.93548	627.849219			
15.977794	479.0022137	0.94136	625.8686274			
16.028197	480.5132576	0.95251	623.9004924			
16.0786	482.0243015	0.94736	621.9446967			
16.129003	483.5353454	0.93127	620.0011247			
16.179406	485.0463894	0.93547	618.0696621			
16.229809	486.5574333	0.94773	616.1501962			
16.280212	488.0684772	0.95484	614.2426155			
16.330615	489.5795212	0.95214	612.34681			
16.381018	491.0905651	0.94875	610.4626709			
16.431421	492.601609	0.95102	608.5900909			
16.481824	494.1126529	0.94967	606.728964			
16.532227	495.6236969	0.95791	604.8791854			
16.58263	497.1347408	0.96571	603.0406516			
16.633033	498.6457847	0.96247	601.2132604			
16.683436	500.1568286	0.96328	599.3969108			
16.733839	501.6678726	0.96819	597.5915031			
16.784242	503.1789165	0.96644	595.7969386			
16.834645	504.6899604	0.96102	594.01312			
16.885048	506.2010043	0.96406	592.239951			
16.935451	507.7120483	0.96614	590.4773366			
16.985854	509.2230922	0.97001	588.7251827			
17.036257	510.7341361	0.97817	586.9833966			
17.08666	512.24518	0.97884	585.2518866			
17.137063	513.756224	0.97858	583.5305618			
17.187466	515.2672679	0.98314	581.8193328			
17.237869	516.7783118	0.98576	580.1181109			
17.288272	518.2893557	0.98597	578.4268086			
17.338675	519.8003997	0.98292	576.7453395			
17.389078	521.3114436	0.98363	575.073618			
17.439481	522.8224875	0.98686	573.4115597			
17.489884	524.3335314	0.98596	571.7590808			
17.540287	525.8445754	0.98395	570.116099			
17.59069	527.3556193	0.97971	568.4825325			
17.641093	528.8666632	0.98245	566.8583007			
17.691496	530.3777072	0.98985	565.2433237			
17.741899	531.8887511	0.99087	563.6375227			
17.792302	533.399795	0.98905	562.0408197			
17.842705	534.9108389	0.99571	560.4531376			
17.893108	536.4218829	0.99631	558.8744001			
17.943511	537.9329268	0.99902	557.304532			
17.993914	539.4439707	1.00476	555.7434586			
18.044317	540.9550146	1.00188	554.1911063			
18.09472	542.4660586	0.99984	552.6474021			
18.145123	543.9771025	0.9955	551.1122741			
18.195526	545.4881464	0.99831	549.5856509			
18.245929	546.9991903	0.99699	548.0674621			
18.296332	548.5102343	0.99011	546.5576379			
18.346735	550.0212782	0.99184	545.0561094			
18.397138	551.5323221	0.99254	543.5628085			
18.447541	553.043366	0.99183	542.0776677			
18.497944	554.55441	0.9945	540.6006203			
18.548347	556.0654539	0.99553	539.1316002			
18.59875	557.5764978	0.99021	537.6705424			
18.649153	559.0875417	0.98783	536.2173821			
18.699556	560.5985857	0.98988	534.7720556			
18.749959	562.1096296	0.98931	533.3344996			
18.800362	563.6206735	0.98636	531.9046516			
18.850765	565.1317175	0.98168	530.4824499			
18.901168	566.6427614	0.98583	529.0678333			
18.951571	568.1538053	0.9896	527.6607412			
19.001974	569.6648492	0.98242	526.2611137			
19.052377	571.1758932	0.97609	524.8688917			
19.10278	572.6869371	0.97942	523.4840165			
19.153183	574.197981	0.98387	522.10643			
19.203586	575.7090249	0.98451	520.736075			
19.253989	577.2200689	0.98006	519.3728946			
19.304392	578.7311128	0.97503	518.0168326			
19.354795	580.2421567	0.97514	516.6678335			
19.405198	581.7532006	0.97322	515.3258421			
19.455601	583.2642446	0.9709	513.990804			
19.506004	584.7752885	0.97275	512.6626653			
19.556407	586.2863324	0.97317	511.3413727			
19.60681	587.7973763	0.97104	510.0268733			
19.657213	589.3084203	0.97106	508.719115			
19.707616	590.8194642	0.96582	507.4180459			
19.758019	592.3305081	0.96881	506.1236149			
19.808422	593.841552	0.97343	504.8357714			
19.858825	595.352596	0.96599	503.5544651			
19.909228	596.8636399	0.96423	502.2796464			
19.959631	598.3746838	0.96368	501.0112662			
20.010034	599.8857278	0.96835	499.7492758			
20.060437	601.3967717	0.97059	498.493627			
20.11084	602.9078156	0.9625	497.2442722			
20.161243	604.4188595	0.9587	496.0011642			
20.211646	605.9299035	0.95908	494.7642562			
20.262049	607.4409474	0.95949	493.533502			
20.312452	608.9519913	0.9582	492.3088557			
20.362855	610.4630352	0.9522	491.090272			
20.413258	611.9740792	0.94867	489.8777059			
20.463661	613.4851231	0.95067	488.6711132			
20.514064	614.996167	0.95258	487.4704495			
20.564467	616.5072109	0.94976	486.2756715			
20.61487	618.0182549	0.95149	485.0867359			
20.665273	619.5292988	0.95673	483.9036			
20.715676	621.0403427	0.95328	482.7262214			
20.766079	622.5513866	0.95264	481.5545583			
20.816482	624.0624306	0.95742	480.388569			
20.866885	625.5734745	0.95447	479.2282125			
20.917288	627.0845184	0.95232	478.0734481			
20.967691	628.5955623	0.95686	476.9242355			
21.018094	630.1066063	0.95751	475.7805346			
21.068497	631.6176502	0.95528	474.642306			
21.1189	633.1286941	0.95207	473.5095104			
21.169303	634.6397381	0.95055	472.3821091			
21.219706	636.150782	0.95316	471.2600636			
21.270109	637.6618259	0.95216	470.1433359			
21.320512	639.1728698	0.95183	469.0318882			
21.370915	640.6839138	0.95241	467.9256831			
21.421318	642.1949577	0.95243	466.8246837			
21.471721	643.7060016	0.95605	465.7288533			
21.522124	645.2170455	0.96	464.6381556			
21.572527	646.7280895	0.95978	463.5525546			
21.62293	648.2391334	0.95698	462.4720147			
21.673333	649.7501773	0.95446	461.3965005			
21.723736	651.2612212	0.95884	460.3259771			
21.774139	652.7722652	0.96177	459.2604098			
21.824542	654.2833091	0.96022	458.1997643			
21.874945	655.794353	0.96135	457.1440065			
21.925348	657.3053969	0.96032	456.0931028			
21.975751	658.8164409	0.96406	455.0470198			
22.026154	660.3274848	0.96431	454.0057243			
22.076557	661.8385287	0.95841	452.9691836			
22.12696	663.3495726	0.96075	451.9373651			
22.177363	664.8606166	0.96687	450.9102367			
22.227766	666.3716605	0.96809	449.8877665			
22.278169	667.8827044	0.96625	448.8699228			
22.328572	669.3937484	0.96627	447.8566744			
22.378975	670.9047923	0.96536	446.8479901			
22.429378	672.4158362	0.96873	445.8438393			
22.479781	673.9268801	0.9728	444.8441913			
22.530184	675.4379241	0.96893	443.8490161			
22.580587	676.948968	0.97148	442.8582835			
22.63099	678.4600119	0.97647	441.8719641			
22.681393	679.9710558	0.97557	440.8900282			
22.731796	681.4820998	0.97563	439.9124469			
22.782199	682.9931437	0.97965	438.9391911			
22.832602	684.5041876	0.97733	437.9702322			
22.883005	686.0152315	0.97122	437.0055419			
22.933408	687.5262755	0.97516	436.0450919			
22.983811	689.0373194	0.97961	435.0888545			
23.034214	690.5483633	0.98013	434.1368019			
23.084617	692.0594072	0.98232	433.1889067			
23.13502	693.5704512	0.98566	432.2451418			
23.185423	695.0814951	0.98637	431.3054802			
23.235826	696.592539	0.98592	430.3698952			
23.286229	698.1035829	0.98741	429.4383603			
23.336632	699.6146269	0.98932	428.5108494			
23.387035	701.1256708	0.9878	427.5873363			
23.437438	702.6367147	0.9865	426.6677953			
23.487841	704.1477587	0.98655	425.7522009			
23.538244	705.6588026	0.98739	424.8405276			
23.588647	707.1698465	0.9897	423.9327504			
23.63905	708.6808904	0.98791	423.0288442			
23.689453	710.1919344	0.9865	422.1287845			
23.739856	711.7029783	0.98656	421.2325467			
23.790259	713.2140222	0.985	420.3401064			
23.840662	714.7250661	0.98509	419.4514397			
23.891065	716.2361101	0.98666	418.5665227			
23.941468	717.747154	0.98987	417.6853316			
23.991871	719.2581979	0.9914	416.807843			
24.042274	720.7692418	0.99008	415.9340335			
24.092677	722.2802858	0.98953	415.0638802			
24.14308	723.7913297	0.98871	414.1973601			
24.193483	725.3023736	0.98962	413.3344504			
24.243886	726.8134175	0.98969	412.4751288			
24.294289	728.3244615	0.98641	411.6193728			
24.344692	729.8355054	0.98539	410.7671602			
24.395095	731.3465493	0.98651	409.9184693			
24.445498	732.8575932	0.98686	409.073278			
24.495901	734.3686372	0.98671	408.2315649			
24.546304	735.8796811	0.98425	407.3933086			
24.596707	737.390725	0.98226	406.5584877			
24.64711	738.9017689	0.97949	405.7270812			
24.697513	740.4128129	0.97538	404.8990682			
24.747916	741.9238568	0.98333	404.0744279			
24.798319	743.4349007	0.98885	403.2531399			
24.848722	744.9459447	0.98464	402.4351836			
24.899125	746.4569886	0.98244	401.6205389			
24.949528	747.9680325	0.97979	400.8091856			
24.999931	749.4790764	0.97987	400.001104			
25.050334	750.9901204	0.97974	399.1962742			
25.100737	752.5011643	0.97782	398.3946766			
25.15114	754.0122082	0.97648	397.5962919			
25.201543	755.5232521	0.97757	396.8011006			
25.251946	757.0342961	0.97935	396.0090838			
25.302349	758.54534	0.97855	395.2202224			
25.352752	760.0563839	0.97589	394.4344977			
25.403155	761.5674278	0.97632	393.6518909			
25.453558	763.0784718	0.97969	392.8723835			
25.503961	764.5895157	0.97951	392.0959572			
25.554364	766.1005596	0.97893	391.3225937			
25.604767	767.6116035	0.98031	390.5522749			
25.65517	769.1226475	0.97828	389.7849829			
25.705573	770.6336914	0.97317	389.0206999			
25.755976	772.1447353	0.97277	388.2594082			
25.806379	773.6557792	0.97329	387.5010903			
25.856782	775.1668232	0.97088	386.7457288			
25.907185	776.6778671	0.97294	385.9933065			
25.957588	778.188911	0.97174	385.2438062			
26.007991	779.699955	0.97074	384.4972109			
26.058394	781.2109989	0.97336	383.7535038			
26.108797	782.7220428	0.97311	383.0126681			
26.1592	784.2330867	0.96913	382.2746873			
26.209603	785.7441307	0.96527	381.5395449			
26.260006	787.2551746	0.96613	380.8072245			
26.310409	788.7662185	0.9665	380.0777099			
26.360812	790.2772624	0.96842	379.3509851			
26.411215	791.7883064	0.97136	378.627034			
26.461618	793.2993503	0.97087	377.9058408			
26.512021	794.8103942	0.96984	377.1873898			
26.562424	796.3214381	0.96935	376.4716654			
26.612827	797.8324821	0.96903	375.758652			
26.66323	799.343526	0.96777	375.0483344			
26.713633	800.8545699	0.9673	374.3406971			
26.764036	802.3656138	0.96555	373.6357252			
26.814439	803.8766578	0.96693	372.9334035			
26.864842	805.3877017	0.97263	372.2337172			
26.915245	806.8987456	0.97054	371.5366514			
26.965648	808.4097895	0.9705	370.8421915			
27.016051	809.9208335	0.97493	370.1503229			
27.066454	811.4318774	0.97447	369.461031			
27.116857	812.9429213	0.97061	368.7743015			
27.16726	814.4539653	0.96774	368.0901202			
27.217663	815.9650092	0.97066	367.4084729			
27.268066	817.4760531	0.97397	366.7293456			
27.318469	818.987097	0.97138	366.0527243			
27.368872	820.498141	0.96906	365.3785951			
27.419275	822.0091849	0.97035	364.7069443			
27.469678	823.5202288	0.97176	364.0377583			
27.520081	825.0312727	0.97123	363.3710235			
27.570484	826.5423167	0.97278	362.7067265			
27.620887	828.0533606	0.97506	362.044854			
27.67129	829.5644045	0.97309	361.3853926			
27.721693	831.0754484	0.97242	360.7283293			
27.772096	832.5864924	0.97693	360.0736509			
27.822499	834.0975363	0.97814	359.4213446			
27.872902	835.6085802	0.97347	358.7713974			
27.923305	837.1196241	0.97291	358.1237966			
27.973708	838.6306681	0.97592	357.4785295			
28.024111	840.141712	0.97523	356.8355835			
28.074514	841.6527559	0.97489	356.1949461			
28.124917	843.1637998	0.97713	355.5566048			
28.17532	844.6748438	0.97843	354.9205475			
28.225723	846.1858877	0.97811	354.2867618			
28.276126	847.6969316	0.97927	353.6552355			
28.326529	849.2079756	0.97983	353.0259567			
28.376932	850.7190195	0.97909	352.3989133			
28.427335	852.2300634	0.98028	351.7740935			
28.477738	853.7411073	0.98114	351.1514854			
28.528141	855.2521513	0.981	350.5310774			
28.578544	856.7631952	0.98194	349.9128577			
28.628947	858.2742391	0.98215	349.2968149			
28.67935	859.785283	0.98293	348.6829374			
28.729753	861.296327	0.9844	348.0712138			
28.780156	862.8073709	0.98118	347.4616329			
28.830559	864.3184148	0.97877	346.8541834			
28.880962	865.8294587	0.98004	346.2488542			
28.931365	867.3405027	0.97934	345.6456341			
28.981768	868.8515466	0.97997	345.0445121			
29.032171	870.3625905	0.98171	344.4454774			
29.082574	871.8736344	0.98135	343.848519			
29.132977	873.3846784	0.98123	343.2536263			
29.18338	874.8957223	0.98152	342.6607884			
29.233783	876.4067662	0.981	342.0699948			
29.284186	877.9178101	0.9797	341.481235			
29.334589	879.4288541	0.97854	340.8944983			
29.384992	880.939898	0.97905	340.3097745			
29.435395	882.4509419	0.97975	339.7270531			
29.485798	883.9619859	0.98021	339.1463239			
29.536201	885.4730298	0.97934	338.5675768			
29.586604	886.9840737	0.97847	337.9908015			
29.637007	888.4951176	0.97821	337.4159881			
29.68741	890.0061616	0.97638	336.8431264			
29.737813	891.5172055	0.97517	336.2722067			
29.788216	893.0282494	0.97368	335.703219			
29.838619	894.5392933	0.97259	335.1361536			
29.889022	896.0503373	0.97506	334.5710007			
29.939425	897.5613812	0.97679	334.0077506			
29.989828	899.0724251	0.97609	333.4463939			
30.040231	900.583469	0.97389	332.8869209			
30.090634	902.094513	0.97477	332.3293221			
30.141037	903.6055569	0.97509	331.7735883			
30.19144	905.1166008	0.97347	331.21971			
30.241843	906.6276447	0.97339	330.6676779			
30.292246	908.1386887	0.97126	330.1174829			
30.342649	909.6497326	0.97116	329.5691157			
30.393052	911.1607765	0.97232	329.0225674			
30.443455	912.6718204	0.96968	328.4778288			
30.493858	914.1828644	0.96974	327.934891			
30.544261	915.6939083	0.97005	327.3937451			
30.594664	917.2049522	0.96827	326.8543822			
30.645067	918.7159962	0.96768	326.3167935			
30.69547	920.2270401	0.96732	325.7809703			
30.745873	921.738084	0.96859	325.2469039			
30.796276	923.2491279	0.96833	324.7145856			
30.846679	924.7601719	0.96765	324.184007			
30.897082	926.2712158	0.96757	323.6551594			
30.947485	927.7822597	0.96646	323.1280345			
30.997888	929.2933036	0.96593	322.6026238			
31.048291	930.8043476	0.96595	322.0789189			
31.098694	932.3153915	0.9653	321.5569117			
31.149097	933.8264354	0.96384	321.0365938			
31.1995	935.3374793	0.96312	320.517957			
31.249903	936.8485233	0.96287	320.0009933			
31.300306	938.3595672	0.96149	319.4856945			
31.350709	939.8706111	0.96195	318.9720526			
31.401112	941.381655	0.96148	318.4600596			
31.451515	942.892699	0.95974	317.9497077			
31.501918	944.4037429	0.96079	317.4409888			
31.552321	945.9147868	0.96138	316.9338953			
31.602724	947.4258307	0.96064	316.4284193			
31.653127	948.9368747	0.96076	315.924553			
31.70353	950.4479186	0.95942	315.4222889			
31.753933	951.9589625	0.959	314.9216193			
31.804336	953.4700064	0.96025	314.4225366			
31.854739	954.9810504	0.96129	313.9250333			
